#nu [Hz]:  Flux [mJy]:
2.72929e+07 5.74857e-13
3.43204e+07 9.0482e-13
4.31573e+07 1.39335e-12
5.42697e+07 2.12389e-12
6.82433e+07 3.21e-12
8.58148e+07 4.82205e-12
1.07911e+08 7.26806e-12
1.35696e+08 1.08986e-11
1.70636e+08 1.65013e-11
2.14572e+08 2.49267e-11
2.6982e+08 3.79687e-11
3.39295e+08 5.81084e-11
4.26658e+08 8.90537e-11
5.36515e+08 1.38148e-10
6.74659e+08 2.13268e-10
8.48373e+08 3.33239e-10
1.06682e+09 5.18426e-10
1.3415e+09 8.1105e-10
1.68692e+09 1.27311e-09
2.12128e+09 1.9907e-09
2.66747e+09 3.14717e-09
3.3543e+09 4.93326e-09
4.21798e+09 7.82086e-09
5.30404e+09 1.2339e-08
6.66975e+09 1.9516e-08
8.3871e+09 3.09926e-08
1.05466e+10 4.90418e-08
1.32622e+10 7.85483e-08
1.66771e+10 1.25674e-07
2.09711e+10 1.99556e-07
2.63709e+10 3.14025e-07
3.31609e+10 4.61799e-07
4.16994e+10 6.52215e-07
5.24363e+10 8.81725e-07
6.59378e+10 1.07648e-06
8.29157e+10 1.21563e-06
1.04265e+11 1.32414e-06
1.31112e+11 1.39749e-06
1.64871e+11 1.44004e-06
2.07323e+11 1.4378e-06
2.60705e+11 1.37571e-06
3.27832e+11 1.27335e-06
4.12244e+11 1.14656e-06
5.1839e+11 9.88553e-07
6.51867e+11 8.14861e-07
8.19713e+11 6.50311e-07
1.03078e+12 4.90871e-07
1.29618e+12 3.5959e-07
1.62993e+12 2.42474e-07
2.04961e+12 1.61964e-07
2.57735e+12 9.67323e-08
3.24098e+12 5.86564e-08
4.07548e+12 3.43361e-08
5.12486e+12 2.19028e-08
6.44442e+12 1.95123e-08
8.10376e+12 2.23789e-08
1.01903e+13 3.29795e-08
1.28142e+13 5.02365e-08
1.61137e+13 7.90376e-08
2.02627e+13 1.23418e-07
2.548e+13 1.94243e-07
3.20407e+13 3.02743e-07
4.02906e+13 4.73933e-07
5.06648e+13 7.35512e-07
6.37102e+13 1.13986e-06
8.01146e+13 1.75626e-06
1.00743e+14 2.6861e-06
1.26682e+14 4.07726e-06
1.59301e+14 6.14137e-06
2.00319e+14 9.1277e-06
2.51898e+14 1.33937e-05
3.16757e+14 1.92239e-05
3.98317e+14 2.70816e-05
5.00877e+14 3.71725e-05
6.29845e+14 4.9638e-05
7.9202e+14 6.43446e-05
9.95953e+14 8.05446e-05
1.25239e+15 9.76981e-05
1.57487e+15 0.000113567
1.98037e+15 0.000128028
2.49028e+15 0.000138484
3.13149e+15 0.000146243
3.9378e+15 0.00014856
4.95172e+15 0.000147922
6.22671e+15 0.00014233
7.82999e+15 0.000133733
9.84609e+15 0.00012168
1.23813e+16 0.00010764
1.55693e+16 9.2203e-05
1.95781e+16 7.58649e-05
2.46192e+16 6.08474e-05
3.09582e+16 4.69649e-05
3.89295e+16 3.51723e-05
4.89532e+16 2.48802e-05
6.15579e+16 1.73882e-05
7.7408e+16 1.10222e-05
9.73394e+16 7.1608e-06
1.22403e+17 4.05843e-06
1.53919e+17 2.36945e-06
1.93551e+17 1.24628e-06
2.43388e+17 6.00936e-07
3.06056e+17 2.99313e-07
3.84861e+17 1.10595e-07
4.83956e+17 5.30864e-08
6.08567e+17 1.52028e-08
7.65263e+17 6.4499e-09
9.62307e+17 1.65824e-09
1.21009e+18 4.67434e-10
1.52166e+18 1.14567e-10
1.91347e+18 1.53585e-11
2.40615e+18 4.231e-12
3.0257e+18 1.55092e-13
3.80477e+18 4.93931e-14
4.78444e+18 2.83478e-30
6.01635e+18 2.83461e-30
7.56547e+18 2.83458e-30
9.51346e+18 2.83458e-30
1.1963e+19 2.83458e-30
1.50433e+19 2.83458e-30
1.89167e+19 2.83458e-30
2.37875e+19 2.83458e-30
2.99124e+19 2.83458e-30
3.76143e+19 2.83458e-30
4.72994e+19 2.83458e-30
5.94783e+19 2.83458e-30
7.4793e+19 2.83458e-30
9.4051e+19 2.83458e-30
1.18268e+20 2.83458e-30
1.4872e+20 2.83458e-30
1.87013e+20 2.83458e-30
2.35165e+20 2.83458e-30
2.95717e+20 2.83458e-30
3.71859e+20 2.83458e-30
4.67607e+20 2.83458e-30
5.88008e+20 2.83458e-30
7.3941e+20 2.83458e-30
9.29797e+20 2.83458e-30
1.1692e+21 2.83458e-30
1.47026e+21 2.83458e-30
1.84882e+21 2.83458e-30
2.32487e+21 2.83458e-30
2.92348e+21 2.83458e-30
3.67623e+21 2.83458e-30
4.6228e+21 2.83458e-30
5.8131e+21 2.83458e-30
7.30988e+21 2.83458e-30
9.19206e+21 2.83458e-30
1.15589e+22 2.83458e-30
1.45351e+22 2.83458e-30
1.82777e+22 2.83458e-30
2.29839e+22 2.83458e-30
2.89018e+22 2.83458e-30
3.63436e+22 2.83458e-30
4.57015e+22 2.83458e-30
5.74689e+22 2.83458e-30
7.22662e+22 2.83458e-30
9.08736e+22 2.83458e-30
1.14272e+23 2.83458e-30
1.43695e+23 2.83458e-30
1.80695e+23 2.83458e-30
2.27221e+23 2.83458e-30
2.85726e+23 2.83458e-30
3.59296e+23 2.83458e-30
4.51809e+23 2.83458e-30
5.68143e+23 2.83458e-30
7.14431e+23 2.83458e-30
8.98385e+23 2.83458e-30
1.12971e+24 2.83458e-30
1.42059e+24 2.83458e-30
1.78636e+24 2.83458e-30
2.24633e+24 2.83458e-30
2.82472e+24 2.83458e-30
3.55204e+24 2.83458e-30
4.46663e+24 2.83458e-30
5.61672e+24 2.83458e-30
7.06293e+24 2.83458e-30
8.88153e+24 2.83458e-30
1.11684e+25 2.83458e-30
1.40441e+25 2.83458e-30
1.76602e+25 2.83458e-30
2.22074e+25 2.83458e-30
2.79254e+25 2.83458e-30
3.51158e+25 2.83458e-30
4.41576e+25 2.83458e-30
5.55274e+25 2.83458e-30
6.98248e+25 2.83458e-30
8.78036e+25 2.83458e-30
1.10412e+26 2.83458e-30
1.38841e+26 2.83458e-30
1.7459e+26 2.83458e-30
2.19544e+26 2.83458e-30
2.76074e+26 2.83458e-30
3.47158e+26 2.83458e-30
4.36546e+26 2.83458e-30
5.48949e+26 2.83458e-30
6.90295e+26 2.83458e-30
8.68035e+26 2.83458e-30
1.09154e+27 2.83458e-30
1.37259e+27 2.83458e-30
1.72602e+27 2.83458e-30
